PixelSpacing = 3.42
ImageFile = 29.08.14_syn_ctrl01_13.08_tomo01_01.st
ImageSize = 3838 3710
DataMode = 1

[T = SerialEM: Digitized by Gatan K2 Camera on Titan         29-Aug-14  21:37:06    ]

[T =     Tilt axis angle = 173.1, binning = 1  spot = 7  camera = 0]

[ZValue = 0]
TiltAngle = -31.9971
StagePosition = 870.222 75.9769
StageZ = -13.9763
Magnification = 42000
Intensity = 0.02676
ExposureDose = 1.04832
PixelSpacing = 3.42
SpotSize = 7
Defocus = 14.8253
ImageShift = 0.000478273 -0.000677771
RotationAngle = -96.9174
ExposureTime = 0.8
Binning = 1
CameraIndex = 0
DividedBy2 = 1
MinMaxMean = 0 10554 50.3538
TargetDefocus = 0.5
SubFramePath = \\Gatan\Zdravko\29.08.14_syn_ctrl01_13.08_tomo_01\Aug29_21.37.29.mrc
NumSubFrames = 10
DateTime = 29-Aug-14  21:37:38

[ZValue = 1]
TiltAngle = -33.9978
StagePosition = 870.22 75.9486
StageZ = -13.9763
Magnification = 42000
Intensity = 0.02676
ExposureDose = 1.04833
PixelSpacing = 3.42
SpotSize = 7
Defocus = 15.0355
ImageShift = 0.00464305 -0.0751898
RotationAngle = -96.9174
ExposureTime = 0.8
Binning = 1
CameraIndex = 0
DividedBy2 = 1
MinMaxMean = 0 23643 48.6085
TargetDefocus = 0.5
SubFramePath = \\Gatan\Zdravko\29.08.14_syn_ctrl01_13.08_tomo_01\Aug29_21.38.42.mrc
NumSubFrames = 10
DateTime = 29-Aug-14  21:38:51

[ZValue = 2]
TiltAngle = -35.9976
StagePosition = 870.206 75.9559
StageZ = -13.9763
Magnification = 42000
Intensity = 0.02676
ExposureDose = 1.04835
PixelSpacing = 3.42
SpotSize = 7
Defocus = 15.1252
ImageShift = 0.0179475 -0.100847
RotationAngle = -96.9174
ExposureTime = 0.8
Binning = 1
CameraIndex = 0
DividedBy2 = 1
MinMaxMean = 0 20140 46.9448
TargetDefocus = 0.5
SubFramePath = \\Gatan\Zdravko\29.08.14_syn_ctrl01_13.08_tomo_01\Aug29_21.39.17.mrc
NumSubFrames = 10
DateTime = 29-Aug-14  21:39:26

[ZValue = 3]
TiltAngle = -37.9978
StagePosition = 870.192 75.9674
StageZ = -13.9763
Magnification = 42000
Intensity = 0.02676
ExposureDose = 1.04837
PixelSpacing = 3.42
SpotSize = 7
Defocus = 15.192
ImageShift = 0.0289241 -0.11872
RotationAngle = -96.9174
ExposureTime = 0.8
Binning = 1
CameraIndex = 0
DividedBy2 = 1
MinMaxMean = 0 26599 44.8695
TargetDefocus = 0.5
SubFramePath = \\Gatan\Zdravko\29.08.14_syn_ctrl01_13.08_tomo_01\Aug29_21.39.51.mrc
NumSubFrames = 10
DateTime = 29-Aug-14  21:40:00

[ZValue = 4]
TiltAngle = -39.9976
StagePosition = 870.172 75.9727
StageZ = -13.9763
Magnification = 42000
Intensity = 0.02676
ExposureDose = 1.15322
PixelSpacing = 3.42
SpotSize = 7
Defocus = 15.2796
ImageShift = 0.0251671 -0.104272
RotationAngle = -96.9174
ExposureTime = 0.88
Binning = 1
CameraIndex = 0
DividedBy2 = 1
MinMaxMean = 0 21628 47.1452
TargetDefocus = 0.5
SubFramePath = \\Gatan\Zdravko\29.08.14_syn_ctrl01_13.08_tomo_01\Aug29_21.40.26.mrc
NumSubFrames = 11
DateTime = 29-Aug-14  21:40:36

[ZValue = 5]
TiltAngle = -41.9974
StagePosition = 870.156 75.9769
StageZ = -13.9763
Magnification = 42000
Intensity = 0.02676
ExposureDose = 1.15324
PixelSpacing = 3.42
SpotSize = 7
Defocus = 15.3646
ImageShift = 0.0280402 -0.10384
RotationAngle = -96.9174
ExposureTime = 0.88
Binning = 1
CameraIndex = 0
DividedBy2 = 1
MinMaxMean = 0 21522 44.6689
TargetDefocus = 0.5
SubFramePath = \\Gatan\Zdravko\29.08.14_syn_ctrl01_13.08_tomo_01\Aug29_21.41.02.mrc
NumSubFrames = 11
DateTime = 29-Aug-14  21:41:11

[ZValue = 6]
TiltAngle = -43.9976
StagePosition = 870.14 75.981
StageZ = -13.9763
Magnification = 42000
Intensity = 0.02676
ExposureDose = 1.15326
PixelSpacing = 3.42
SpotSize = 7
Defocus = 15.4647
ImageShift = 0.0291478 -0.0991992
RotationAngle = -96.9174
ExposureTime = 0.88
Binning = 1
CameraIndex = 0
DividedBy2 = 1
MinMaxMean = 0 24409 42.1591
TargetDefocus = 0.5
SubFramePath = \\Gatan\Zdravko\29.08.14_syn_ctrl01_13.08_tomo_01\Aug29_21.41.37.mrc
NumSubFrames = 11
DateTime = 29-Aug-14  21:41:47

[ZValue = 7]
TiltAngle = -45.9984
StagePosition = 870.128 75.9831
StageZ = -13.975
Magnification = 42000
Intensity = 0.02676
ExposureDose = 1.15329
PixelSpacing = 3.42
SpotSize = 7
Defocus = 15.4653
ImageShift = 0.0402356 -0.118026
RotationAngle = -96.9174
ExposureTime = 0.88
Binning = 1
CameraIndex = 0
DividedBy2 = 1
MinMaxMean = 0 31305 39.5483
TargetDefocus = 0.5
SubFramePath = \\Gatan\Zdravko\29.08.14_syn_ctrl01_13.08_tomo_01\Aug29_21.42.23.mrc
NumSubFrames = 11
DateTime = 29-Aug-14  21:42:33

[ZValue = 8]
TiltAngle = -47.9976
StagePosition = 870.119 75.981
StageZ = -13.9743
Magnification = 42000
Intensity = 0.02676
ExposureDose = 1.15331
PixelSpacing = 3.42
SpotSize = 7
Defocus = 15.6778
ImageShift = 0.0495992 -0.131872
RotationAngle = -96.9174
ExposureTime = 0.88
Binning = 1
CameraIndex = 0
DividedBy2 = 1
MinMaxMean = 0 31196 36.7488
TargetDefocus = 0.5
SubFramePath = \\Gatan\Zdravko\29.08.14_syn_ctrl01_13.08_tomo_01\Aug29_21.43.08.mrc
NumSubFrames = 11
DateTime = 29-Aug-14  21:43:18

[ZValue = 9]
TiltAngle = -49.9979
StagePosition = 870.108 75.9821
StageZ = -13.9743
Magnification = 42000
Intensity = 0.02676
ExposureDose = 1.15334
PixelSpacing = 3.42
SpotSize = 7
Defocus = 15.7661
ImageShift = 0.0629814 -0.15191
RotationAngle = -96.9174
ExposureTime = 0.88
Binning = 1
CameraIndex = 0
DividedBy2 = 1
MinMaxMean = -32479 22900 33.9743
TargetDefocus = 0.5
SubFramePath = \\Gatan\Zdravko\29.08.14_syn_ctrl01_13.08_tomo_01\Aug29_21.43.44.mrc
NumSubFrames = 11
DateTime = 29-Aug-14  21:43:54

[ZValue = 10]
TiltAngle = -51.9976
StagePosition = 870.099 75.9842
StageZ = -13.9743
Magnification = 42000
Intensity = 0.02676
ExposureDose = 1.25821
PixelSpacing = 3.42
SpotSize = 7
Defocus = 15.8438
ImageShift = 0.0903999 -0.20003
RotationAngle = -96.9174
ExposureTime = 0.96
Binning = 1
CameraIndex = 0
DividedBy2 = 1
MinMaxMean = 0 28678 36.6246
TargetDefocus = 0.5
SubFramePath = \\Gatan\Zdravko\29.08.14_syn_ctrl01_13.08_tomo_01\Aug29_21.44.20.mrc
NumSubFrames = 13
DateTime = 29-Aug-14  21:44:31

[ZValue = 11]
TiltAngle = -53.9979
StagePosition = 870.091 75.9863
StageZ = -13.9743
Magnification = 42000
Intensity = 0.02676
ExposureDose = 1.25825
PixelSpacing = 3.42
SpotSize = 7
Defocus = 15.9916
ImageShift = 0.108381 -0.225174
RotationAngle = -96.9174
ExposureTime = 0.96
Binning = 1
CameraIndex = 0
DividedBy2 = 1
MinMaxMean = -32698 22052 33.1691
TargetDefocus = 0.5
SubFramePath = \\Gatan\Zdravko\29.08.14_syn_ctrl01_13.08_tomo_01\Aug29_21.45.07.mrc
NumSubFrames = 13
DateTime = 29-Aug-14  21:45:17

[ZValue = 12]
TiltAngle = -55.9971
StagePosition = 870.08 75.9884
StageZ = -13.9743
Magnification = 42000
Intensity = 0.02676
ExposureDose = 1.25828
PixelSpacing = 3.42
SpotSize = 7
Defocus = 16.0746
ImageShift = 0.127704 -0.258997
RotationAngle = -96.9174
ExposureTime = 0.96
Binning = 1
CameraIndex = 0
DividedBy2 = 1
MinMaxMean = -27663 23748 29.522
TargetDefocus = 0.5
SubFramePath = \\Gatan\Zdravko\29.08.14_syn_ctrl01_13.08_tomo_01\Aug29_21.45.32.mrc
NumSubFrames = 13
DateTime = 29-Aug-14  21:45:42

[ZValue = 13]
TiltAngle = -57.9979
StagePosition = 870.076 75.9915
StageZ = -13.9743
Magnification = 42000
Intensity = 0.02676
ExposureDose = 1.36317
PixelSpacing = 3.42
SpotSize = 7
Defocus = 16.1387
ImageShift = 0.155443 -0.306357
RotationAngle = -96.9174
ExposureTime = 1.04
Binning = 1
CameraIndex = 0
DividedBy2 = 1
MinMaxMean = -30947 26611 25.7793
TargetDefocus = 0.5
SubFramePath = \\Gatan\Zdravko\29.08.14_syn_ctrl01_13.08_tomo_01\Aug29_21.46.19.mrc
NumSubFrames = 13
DateTime = 29-Aug-14  21:46:30

[ZValue = 14]
TiltAngle = -59.9977
StagePosition = 870.066 75.9915
StageZ = -13.9729
Magnification = 42000
Intensity = 0.02676
ExposureDose = 1.36321
PixelSpacing = 3.42
SpotSize = 7
Defocus = 16.5107
ImageShift = 0.17689 -0.343983
RotationAngle = -96.9174
ExposureTime = 1.04
Binning = 1
CameraIndex = 0
DividedBy2 = 1
MinMaxMean = 0 30211 22.1409
TargetDefocus = 0.5
SubFramePath = \\Gatan\Zdravko\29.08.14_syn_ctrl01_13.08_tomo_01\Aug29_21.47.07.mrc
NumSubFrames = 13
DateTime = 29-Aug-14  21:47:17
