PixelSpacing = 3.42
ImageFile = 29.08.14_syn_ctrl01_13.08_tomo01.st
ImageSize = 3838 3710
DataMode = 1

[T = SerialEM: Digitized by Gatan K2 Camera on Titan         29-Aug-14  21:01:23    ]

[T =     Tilt axis angle = 173.1, binning = 1  spot = 7  camera = 0]

[ZValue = 0] 
TiltAngle = -30.0013
StagePosition = 870.132 76.0251
StageZ = -13.9763
Magnification = 42000
Intensity = 0.02676
ExposureDose = 1.15325
PixelSpacing = 3.42
SpotSize = 7
Defocus = 14.5126
ImageShift = 0.117401 -0.304539
RotationAngle = -96.9174
ExposureTime = 0.88
Binning = 1
CameraIndex = 0
DividedBy2 = 1
MinMaxMean = 0 21563 57.0332
TargetDefocus = 0.5
SubFramePath = \\Gatan\Zdravko\29.08.14_syn_ctrl01_13.08_tomo_01\Aug29_21.02.09.mrc
NumSubFrames = 11
DateTime = 29-Aug-14  21:02:18

[ZValue = 1]
TiltAngle = -28.0021
StagePosition = 870.167 76.0481
StageZ = -13.9763
Magnification = 42000
Intensity = 0.02676
ExposureDose = 1.15324
PixelSpacing = 3.42
SpotSize = 7
Defocus = 14.6127
ImageShift = 0.108083 -0.301862
RotationAngle = -96.9174
ExposureTime = 0.88
Binning = 1
CameraIndex = 0
DividedBy2 = 1
MinMaxMean = 0 32619 58.5461
TargetDefocus = 0.5
SubFramePath = \\Gatan\Zdravko\29.08.14_syn_ctrl01_13.08_tomo_01\Aug29_21.02.44.mrc
NumSubFrames = 11
DateTime = 29-Aug-14  21:02:53

[ZValue = 2]
TiltAngle = -26.0028
StagePosition = 870.196 76.023
StageZ = -13.9763
Magnification = 42000
Intensity = 0.02676
ExposureDose = 1.15322
PixelSpacing = 3.42
SpotSize = 7
Defocus = 14.558
ImageShift = 0.102895 -0.304514
RotationAngle = -96.9174
ExposureTime = 0.88
Binning = 1
CameraIndex = 0
DividedBy2 = 1
MinMaxMean = 0 28897 60.4257
TargetDefocus = 0.5
SubFramePath = \\Gatan\Zdravko\29.08.14_syn_ctrl01_13.08_tomo_01\Aug29_21.03.29.mrc
NumSubFrames = 11
DateTime = 29-Aug-14  21:03:38

[ZValue = 3]
TiltAngle = -24.0026
StagePosition = 870.222 75.9947
StageZ = -13.9763
Magnification = 42000
Intensity = 0.02676
ExposureDose = 1.04838
PixelSpacing = 3.42
SpotSize = 7
Defocus = 14.5021
ImageShift = 0.105744 -0.321554
RotationAngle = -96.9174
ExposureTime = 0.8
Binning = 1
CameraIndex = 0
DividedBy2 = 1
MinMaxMean = 0 24628 56.224
TargetDefocus = 0.5
SubFramePath = \\Gatan\Zdravko\29.08.14_syn_ctrl01_13.08_tomo_01\Aug29_21.04.12.mrc
NumSubFrames = 10
DateTime = 29-Aug-14  21:04:22

[ZValue = 4]
TiltAngle = -22.0033
StagePosition = 870.241 75.9737
StageZ = -13.9763
Magnification = 42000
Intensity = 0.02676
ExposureDose = 1.04837
PixelSpacing = 3.42
SpotSize = 7
Defocus = 14.3962
ImageShift = 0.0962088 -0.311324
RotationAngle = -96.9174
ExposureTime = 0.8
Binning = 1
CameraIndex = 0
DividedBy2 = 1
MinMaxMean = 0 24081 57.1487
TargetDefocus = 0.5
SubFramePath = \\Gatan\Zdravko\29.08.14_syn_ctrl01_13.08_tomo_01\Aug29_21.04.47.mrc
NumSubFrames = 10
DateTime = 29-Aug-14  21:04:56

[ZValue = 5]
TiltAngle = -20.0026
StagePosition = 870.256 75.958
StageZ = -13.9763
Magnification = 42000
Intensity = 0.02676
ExposureDose = 1.04836
PixelSpacing = 3.42
SpotSize = 7
Defocus = 14.413
ImageShift = 0.0904315 -0.307952
RotationAngle = -96.9174
ExposureTime = 0.8
Binning = 1
CameraIndex = 0
DividedBy2 = 1
MinMaxMean = 0 21345 58.4578
TargetDefocus = 0.5
SubFramePath = \\Gatan\Zdravko\29.08.14_syn_ctrl01_13.08_tomo_01\Aug29_21.05.21.mrc
NumSubFrames = 10
DateTime = 29-Aug-14  21:05:30

[ZValue = 6]
TiltAngle = -18.0033
StagePosition = 870.267 75.9381
StageZ = -13.9763
Magnification = 42000
Intensity = 0.02676
ExposureDose = 1.04835
PixelSpacing = 3.42
SpotSize = 7
Defocus = 14.4327
ImageShift = 0.0872829 -0.310577
RotationAngle = -96.9174
ExposureTime = 0.8
Binning = 1
CameraIndex = 0
DividedBy2 = 1
MinMaxMean = 0 24519 59.3707
TargetDefocus = 0.5
SubFramePath = \\Gatan\Zdravko\29.08.14_syn_ctrl01_13.08_tomo_01\Aug29_21.05.55.mrc
NumSubFrames = 10
DateTime = 29-Aug-14  21:06:04

[ZValue = 7]
TiltAngle = -16.0035
StagePosition = 870.276 75.9245
StageZ = -13.9763
Magnification = 42000
Intensity = 0.02676
ExposureDose = 1.04834
PixelSpacing = 3.42
SpotSize = 7
Defocus = 14.4227
ImageShift = 0.0938237 -0.330923
RotationAngle = -96.9174
ExposureTime = 0.8
Binning = 1
CameraIndex = 0
DividedBy2 = 1
MinMaxMean = 0 23534 60.0521
TargetDefocus = 0.5
SubFramePath = \\Gatan\Zdravko\29.08.14_syn_ctrl01_13.08_tomo_01\Aug29_21.06.29.mrc
NumSubFrames = 10
DateTime = 29-Aug-14  21:06:38

[ZValue = 8]
TiltAngle = -14.0038
StagePosition = 870.286 75.9119
StageZ = -13.9763
Magnification = 42000
Intensity = 0.02676
ExposureDose = 1.04834
PixelSpacing = 3.42
SpotSize = 7
Defocus = 14.481
ImageShift = 0.0836923 -0.312631
RotationAngle = -96.9174
ExposureTime = 0.8
Binning = 1
CameraIndex = 0
DividedBy2 = 1
MinMaxMean = 0 32072 60.873
TargetDefocus = 0.5
SubFramePath = \\Gatan\Zdravko\29.08.14_syn_ctrl01_13.08_tomo_01\Aug29_21.07.03.mrc
NumSubFrames = 10
DateTime = 29-Aug-14  21:07:11

[ZValue = 9]
TiltAngle = -12.003
StagePosition = 870.293 75.8941
StageZ = -13.9763
Magnification = 42000
Intensity = 0.02676
ExposureDose = 1.04833
PixelSpacing = 3.42
SpotSize = 7
Defocus = 14.527
ImageShift = 0.0754876 -0.302872
RotationAngle = -96.9174
ExposureTime = 0.8
Binning = 1
CameraIndex = 0
DividedBy2 = 1
MinMaxMean = 0 27912 61.4913
TargetDefocus = 0.5
SubFramePath = \\Gatan\Zdravko\29.08.14_syn_ctrl01_13.08_tomo_01\Aug29_21.07.37.mrc
NumSubFrames = 10
DateTime = 29-Aug-14  21:07:46

[ZValue = 10]
TiltAngle = -10.0048
StagePosition = 870.302 75.8742
StageZ = -13.9763
Magnification = 42000
Intensity = 0.02676
ExposureDose = 1.04833
PixelSpacing = 3.42
SpotSize = 7
Defocus = 14.5302
ImageShift = 0.0777726 -0.31198
RotationAngle = -96.9174
ExposureTime = 0.8
Binning = 1
CameraIndex = 0
DividedBy2 = 1
MinMaxMean = 0 10554 62.1497
TargetDefocus = 0.5
SubFramePath = \\Gatan\Zdravko\29.08.14_syn_ctrl01_13.08_tomo_01\Aug29_21.08.00.mrc
NumSubFrames = 10
DateTime = 29-Aug-14  21:08:09

[ZValue = 11]
TiltAngle = -8.00302
StagePosition = 870.219 76.4327
StageZ = -13.9763
Magnification = 42000
Intensity = 0.02676
ExposureDose = 1.04832
PixelSpacing = 3.42
SpotSize = 7
Defocus = 14.4932
ImageShift = 0 2.11758e-016
RotationAngle = -96.9174
ExposureTime = 0.8
Binning = 1
CameraIndex = 0
DividedBy2 = 1
MinMaxMean = 0 24190 60.6658
TargetDefocus = 0.5
SubFramePath = \\Gatan\Zdravko\29.08.14_syn_ctrl01_13.08_tomo_01\Aug29_21.09.11.mrc
NumSubFrames = 10
DateTime = 29-Aug-14  21:09:19

[ZValue = 12]
TiltAngle = -6.00376
StagePosition = 870.236 76.591
StageZ = -13.9763
Magnification = 42000
Intensity = 0.02676
ExposureDose = 1.04832
PixelSpacing = 3.42
SpotSize = 7
Defocus = 14.4627
ImageShift = -0.136386 0.17926
RotationAngle = -96.9174
ExposureTime = 0.8
Binning = 1
CameraIndex = 0
DividedBy2 = 1
MinMaxMean = 0 24628 61.0297
TargetDefocus = 0.5
SubFramePath = \\Gatan\Zdravko\29.08.14_syn_ctrl01_13.08_tomo_01\Aug29_21.09.51.mrc
NumSubFrames = 10
DateTime = 29-Aug-14  21:10:00

[ZValue = 13]
TiltAngle = -4.00301
StagePosition = 870.245 76.5931
StageZ = -13.9763
Magnification = 42000
Intensity = 0.02676
ExposureDose = 1.04832
PixelSpacing = 3.42
SpotSize = 7
Defocus = 14.4036
ImageShift = -0.15274 0.183871
RotationAngle = -96.9174
ExposureTime = 0.8
Binning = 1
CameraIndex = 0
DividedBy2 = 1
MinMaxMean = 0 24300 61.3753
TargetDefocus = 0.5
SubFramePath = \\Gatan\Zdravko\29.08.14_syn_ctrl01_13.08_tomo_01\Aug29_21.10.25.mrc
NumSubFrames = 10
DateTime = 29-Aug-14  21:10:34

[ZValue = 14]
TiltAngle = -2.00325
StagePosition = 870.253 76.5836
StageZ = -13.9763
Magnification = 42000
Intensity = 0.02676
ExposureDose = 1.04832
PixelSpacing = 3.42
SpotSize = 7
Defocus = 14.3666
ImageShift = -0.139707 0.142337
RotationAngle = -96.9174
ExposureTime = 0.8
Binning = 1
CameraIndex = 0
DividedBy2 = 1
MinMaxMean = 0 23534 61.6179
TargetDefocus = 0.5
SubFramePath = \\Gatan\Zdravko\29.08.14_syn_ctrl01_13.08_tomo_01\Aug29_21.10.59.mrc
NumSubFrames = 10
DateTime = 29-Aug-14  21:11:07

[ZValue = 15]
TiltAngle = -0.00299963
StagePosition = 870.258 76.57
StageZ = -13.9763
Magnification = 42000
Intensity = 0.02676
ExposureDose = 1.04832
PixelSpacing = 3.42
SpotSize = 7
Defocus = 14.3316
ImageShift = -0.116476 0.0881822
RotationAngle = -96.9174
ExposureTime = 0.8
Binning = 1
CameraIndex = 0
DividedBy2 = 1
MinMaxMean = 0 21563 61.8978
TargetDefocus = 0.5
SubFramePath = \\Gatan\Zdravko\29.08.14_syn_ctrl01_13.08_tomo_01\Aug29_21.11.33.mrc
NumSubFrames = 10
DateTime = 29-Aug-14  21:11:41

[ZValue = 16]
TiltAngle = 1.99676
StagePosition = 870.264 76.5606
StageZ = -13.9763
Magnification = 42000
Intensity = 0.02676
ExposureDose = 1.04832
PixelSpacing = 3.42
SpotSize = 7
Defocus = 14.297
ImageShift = -0.0986019 0.0457923
RotationAngle = -96.9174
ExposureTime = 0.8
Binning = 1
CameraIndex = 0
DividedBy2 = 1
MinMaxMean = 0 29007 61.8611
TargetDefocus = 0.5
SubFramePath = \\Gatan\Zdravko\29.08.14_syn_ctrl01_13.08_tomo_01\Aug29_21.12.06.mrc
NumSubFrames = 10
DateTime = 29-Aug-14  21:12:14

[ZValue = 17]
TiltAngle = 3.99601
StagePosition = 870.268 76.548
StageZ = -13.9763
Magnification = 42000
Intensity = 0.02676
ExposureDose = 1.04832
PixelSpacing = 3.42
SpotSize = 7
Defocus = 14.2709
ImageShift = -0.0894373 0.0196178
RotationAngle = -96.9174
ExposureTime = 0.8
Binning = 1
CameraIndex = 0
DividedBy2 = 1
MinMaxMean = 0 26270 61.7034
TargetDefocus = 0.5
SubFramePath = \\Gatan\Zdravko\29.08.14_syn_ctrl01_13.08_tomo_01\Aug29_21.12.40.mrc
NumSubFrames = 10
DateTime = 29-Aug-14  21:12:49

[ZValue = 18]
TiltAngle = 5.99727
StagePosition = 870.276 76.5386
StageZ = -13.9763
Magnification = 42000
Intensity = 0.02676
ExposureDose = 1.04832
PixelSpacing = 3.42
SpotSize = 7
Defocus = 14.2162
ImageShift = -0.0995948 0.0304756
RotationAngle = -96.9174
ExposureTime = 0.8
Binning = 1
CameraIndex = 0
DividedBy2 = 1
MinMaxMean = 0 31743 61.1729
TargetDefocus = 0.5
SubFramePath = \\Gatan\Zdravko\29.08.14_syn_ctrl01_13.08_tomo_01\Aug29_21.13.14.mrc
NumSubFrames = 10
DateTime = 29-Aug-14  21:13:23

[ZValue = 19]
TiltAngle = 7.99652
StagePosition = 870.286 76.5292
StageZ = -13.9763
Magnification = 42000
Intensity = 0.02676
ExposureDose = 1.04832
PixelSpacing = 3.42
SpotSize = 7
Defocus = 14.1658
ImageShift = -0.100891 0.0139564
RotationAngle = -96.9174
ExposureTime = 0.8
Binning = 1
CameraIndex = 0
DividedBy2 = 1
MinMaxMean = 0 29554 61.1207
TargetDefocus = 0.5
SubFramePath = \\Gatan\Zdravko\29.08.14_syn_ctrl01_13.08_tomo_01\Aug29_21.13.48.mrc
NumSubFrames = 10
DateTime = 29-Aug-14  21:13:57

[ZValue = 20]
TiltAngle = 9.99578
StagePosition = 870.301 76.5197
StageZ = -13.9763
Magnification = 42000
Intensity = 0.02676
ExposureDose = 1.04833
PixelSpacing = 3.42
SpotSize = 7
Defocus = 14.1002
ImageShift = -0.109684 0.00258001
RotationAngle = -96.9174
ExposureTime = 0.8
Binning = 1
CameraIndex = 0
DividedBy2 = 1
MinMaxMean = 0 24300 60.5728
TargetDefocus = 0.5
SubFramePath = \\Gatan\Zdravko\29.08.14_syn_ctrl01_13.08_tomo_01\Aug29_21.14.22.mrc
NumSubFrames = 10
DateTime = 29-Aug-14  21:14:31

[ZValue = 21]
TiltAngle = 11.9955
StagePosition = 870.32 76.5124
StageZ = -13.9763
Magnification = 42000
Intensity = 0.02676
ExposureDose = 1.04833
PixelSpacing = 3.42
SpotSize = 7
Defocus = 14.0227
ImageShift = -0.118113 -0.0254742
RotationAngle = -96.9174
ExposureTime = 0.8
Binning = 1
CameraIndex = 0
DividedBy2 = 1
MinMaxMean = 0 25176 60.3187
TargetDefocus = 0.5
SubFramePath = \\Gatan\Zdravko\29.08.14_syn_ctrl01_13.08_tomo_01\Aug29_21.14.57.mrc
NumSubFrames = 10
DateTime = 29-Aug-14  21:15:05

[ZValue = 22]
TiltAngle = 13.9968
StagePosition = 870.335 76.504
StageZ = -13.9763
Magnification = 42000
Intensity = 0.02676
ExposureDose = 1.04834
PixelSpacing = 3.42
SpotSize = 7
Defocus = 13.9488
ImageShift = -0.128916 -0.0584724
RotationAngle = -96.9174
ExposureTime = 0.8
Binning = 1
CameraIndex = 0
DividedBy2 = 1
MinMaxMean = 0 27803 59.6774
TargetDefocus = 0.5
SubFramePath = \\Gatan\Zdravko\29.08.14_syn_ctrl01_13.08_tomo_01\Aug29_21.15.31.mrc
NumSubFrames = 10
DateTime = 29-Aug-14  21:15:39

[ZValue = 23]
TiltAngle = 15.994
StagePosition = 870.34 76.5051
StageZ = -13.9763
Magnification = 42000
Intensity = 0.02676
ExposureDose = 1.04834
PixelSpacing = 3.42
SpotSize = 7
Defocus = 13.8702
ImageShift = -0.129509 -0.0680323
RotationAngle = -96.9174
ExposureTime = 0.8
Binning = 1
CameraIndex = 0
DividedBy2 = 1
MinMaxMean = 0 22330 58.826
TargetDefocus = 0.5
SubFramePath = \\Gatan\Zdravko\29.08.14_syn_ctrl01_13.08_tomo_01\Aug29_21.16.05.mrc
NumSubFrames = 10
DateTime = 29-Aug-14  21:16:14

[ZValue = 24]
TiltAngle = 17.9958
StagePosition = 870.343 76.5061
StageZ = -13.9763
Magnification = 42000
Intensity = 0.02676
ExposureDose = 1.04835
PixelSpacing = 3.42
SpotSize = 7
Defocus = 13.7677
ImageShift = -0.129022 -0.0749715
RotationAngle = -96.9174
ExposureTime = 0.8
Binning = 1
CameraIndex = 0
DividedBy2 = 1
MinMaxMean = 0 16009 58.1113
TargetDefocus = 0.5
SubFramePath = \\Gatan\Zdravko\29.08.14_syn_ctrl01_13.08_tomo_01\Aug29_21.16.39.mrc
NumSubFrames = 10
DateTime = 29-Aug-14  21:16:48

[ZValue = 25]
TiltAngle = 19.9941
StagePosition = 870.348 76.5051
StageZ = -13.9763
Magnification = 42000
Intensity = 0.02676
ExposureDose = 1.04836
PixelSpacing = 3.42
SpotSize = 7
Defocus = 13.6967
ImageShift = -0.13369 -0.0687324
RotationAngle = -96.9174
ExposureTime = 0.8
Binning = 1
CameraIndex = 0
DividedBy2 = 1
MinMaxMean = 0 27912 57.0426
TargetDefocus = 0.5
SubFramePath = \\Gatan\Zdravko\29.08.14_syn_ctrl01_13.08_tomo_01\Aug29_21.17.03.mrc
NumSubFrames = 10
DateTime = 29-Aug-14  21:17:12

[ZValue = 26]
TiltAngle = 21.9948
StagePosition = 870.348 76.5071
StageZ = -13.9763
Magnification = 42000
Intensity = 0.02676
ExposureDose = 1.04837
PixelSpacing = 3.42
SpotSize = 7
Defocus = 13.5462
ImageShift = -0.131181 -0.0784371
RotationAngle = -96.9174
ExposureTime = 0.8
Binning = 1
CameraIndex = 0
DividedBy2 = 1
MinMaxMean = 0 25395 56.2082
TargetDefocus = 0.5
SubFramePath = \\Gatan\Zdravko\29.08.14_syn_ctrl01_13.08_tomo_01\Aug29_21.17.38.mrc
NumSubFrames = 10
DateTime = 29-Aug-14  21:17:46

[ZValue = 27]
TiltAngle = 23.9941
StagePosition = 870.351 76.5082
StageZ = -13.9763
Magnification = 42000
Intensity = 0.02676
ExposureDose = 1.04838
PixelSpacing = 3.42
SpotSize = 7
Defocus = 13.5114
ImageShift = -0.137416 -0.0663301
RotationAngle = -96.9174
ExposureTime = 0.8
Binning = 1
CameraIndex = 0
DividedBy2 = 1
MinMaxMean = 0 8554 55.2544
TargetDefocus = 0.5
SubFramePath = \\Gatan\Zdravko\29.08.14_syn_ctrl01_13.08_tomo_01\Aug29_21.18.12.mrc
NumSubFrames = 10
DateTime = 29-Aug-14  21:18:21

[ZValue = 28]
TiltAngle = 25.9933
StagePosition = 870.352 76.5145
StageZ = -13.9763
Magnification = 42000
Intensity = 0.02676
ExposureDose = 1.15322
PixelSpacing = 3.42
SpotSize = 7
Defocus = 13.3875
ImageShift = -0.147169 -0.0456838
RotationAngle = -96.9174
ExposureTime = 0.88
Binning = 1
CameraIndex = 0
DividedBy2 = 1
MinMaxMean = -32042 11719 59.2064
TargetDefocus = 0.5
SubFramePath = \\Gatan\Zdravko\29.08.14_syn_ctrl01_13.08_tomo_01\Aug29_21.18.46.mrc
NumSubFrames = 11
DateTime = 29-Aug-14  21:18:55

[ZValue = 29]
TiltAngle = 27.9946
StagePosition = 870.352 76.5134
StageZ = -13.9763
Magnification = 42000
Intensity = 0.02676
ExposureDose = 1.15324
PixelSpacing = 3.42
SpotSize = 7
Defocus = 13.3043
ImageShift = -0.137731 -0.0651867
RotationAngle = -96.9174
ExposureTime = 0.88
Binning = 1
CameraIndex = 0
DividedBy2 = 1
MinMaxMean = 0 26708 57.8739
TargetDefocus = 0.5
SubFramePath = \\Gatan\Zdravko\29.08.14_syn_ctrl01_13.08_tomo_01\Aug29_21.19.21.mrc
NumSubFrames = 11
DateTime = 29-Aug-14  21:19:30

[ZValue = 30]
TiltAngle = 29.9948
StagePosition = 870.352 76.5166
StageZ = -13.9763
Magnification = 42000
Intensity = 0.02676
ExposureDose = 1.15325
PixelSpacing = 3.42
SpotSize = 7
Defocus = 13.2725
ImageShift = -0.141785 -0.0520924
RotationAngle = -96.9174
ExposureTime = 0.88
Binning = 1
CameraIndex = 0
DividedBy2 = 1
MinMaxMean = -28429 11653 56.166
TargetDefocus = 0.5
SubFramePath = \\Gatan\Zdravko\29.08.14_syn_ctrl01_13.08_tomo_01\Aug29_21.19.56.mrc
NumSubFrames = 11
DateTime = 29-Aug-14  21:20:06

[ZValue = 31]
TiltAngle = 31.9941
StagePosition = 870.354 76.5176
StageZ = -13.9763
Magnification = 42000
Intensity = 0.02676
ExposureDose = 1.15326
PixelSpacing = 3.42
SpotSize = 7
Defocus = 13.1843
ImageShift = -0.133746 -0.066801
RotationAngle = -96.9174
ExposureTime = 0.88
Binning = 1
CameraIndex = 0
DividedBy2 = 1
MinMaxMean = -31604 13783 54.43
TargetDefocus = 0.5
SubFramePath = \\Gatan\Zdravko\29.08.14_syn_ctrl01_13.08_tomo_01\Aug29_21.20.31.mrc
NumSubFrames = 11
DateTime = 29-Aug-14  21:20:40

[ZValue = 32]
TiltAngle = 33.9938
StagePosition = 870.356 76.5218
StageZ = -13.9763
Magnification = 42000
Intensity = 0.02676
ExposureDose = 1.15328
PixelSpacing = 3.42
SpotSize = 7
Defocus = 13.1068
ImageShift = -0.139356 -0.0527859
RotationAngle = -96.9174
ExposureTime = 0.88
Binning = 1
CameraIndex = 0
DividedBy2 = 1
MinMaxMean = 0 31196 52.7349
TargetDefocus = 0.5
SubFramePath = \\Gatan\Zdravko\29.08.14_syn_ctrl01_13.08_tomo_01\Aug29_21.20.56.mrc
NumSubFrames = 11
DateTime = 29-Aug-14  21:21:05

[ZValue = 33]
TiltAngle = 35.9936
StagePosition = 870.199 76.6843
StageZ = -13.9763
Magnification = 42000
Intensity = 0.02676
ExposureDose = 1.1533
PixelSpacing = 3.42
SpotSize = 7
Defocus = 13.6805
ImageShift = 0 2.11758e-016
RotationAngle = -96.9174
ExposureTime = 0.88
Binning = 1
CameraIndex = 0
DividedBy2 = 1
MinMaxMean = -29633 9393 49.1409
TargetDefocus = 0.5
SubFramePath = \\Gatan\Zdravko\29.08.14_syn_ctrl01_13.08_tomo_01\Aug29_21.22.03.mrc
NumSubFrames = 11
DateTime = 29-Aug-14  21:22:12

[ZValue = 34]
TiltAngle = 37.9933
StagePosition = 870.211 76.7838
StageZ = -13.9763
Magnification = 42000
Intensity = 0.02676
ExposureDose = 1.15331
PixelSpacing = 3.42
SpotSize = 7
Defocus = 13.691
ImageShift = -0.0540634 0.0966599
RotationAngle = -96.9174
ExposureTime = 0.88
Binning = 1
CameraIndex = 0
DividedBy2 = 1
MinMaxMean = -29086 11619 46.9926
TargetDefocus = 0.5
SubFramePath = \\Gatan\Zdravko\29.08.14_syn_ctrl01_13.08_tomo_01\Aug29_21.22.44.mrc
NumSubFrames = 11
DateTime = 29-Aug-14  21:22:54

[ZValue = 35]
TiltAngle = 39.9931
StagePosition = 870.211 76.809
StageZ = -13.9763
Magnification = 42000
Intensity = 0.02676
ExposureDose = 1.15333
PixelSpacing = 3.42
SpotSize = 7
Defocus = 13.6804
ImageShift = -0.0624741 0.11533
RotationAngle = -96.9174
ExposureTime = 0.88
Binning = 1
CameraIndex = 0
DividedBy2 = 1
MinMaxMean = -28429 11386 44.8867
TargetDefocus = 0.5
SubFramePath = \\Gatan\Zdravko\29.08.14_syn_ctrl01_13.08_tomo_01\Aug29_21.23.20.mrc
NumSubFrames = 11
DateTime = 29-Aug-14  21:23:29

[ZValue = 36]
TiltAngle = 41.9939
StagePosition = 870.208 76.8278
StageZ = -13.9763
Magnification = 42000
Intensity = 0.02676
ExposureDose = 1.2582
PixelSpacing = 3.42
SpotSize = 7
Defocus = 13.4182
ImageShift = -0.066094 0.133869
RotationAngle = -96.9174
ExposureTime = 0.96
Binning = 1
CameraIndex = 0
DividedBy2 = 1
MinMaxMean = -25474 13684 50.3015
TargetDefocus = 0.5
SubFramePath = \\Gatan\Zdravko\29.08.14_syn_ctrl01_13.08_tomo_01\Aug29_21.24.05.mrc
NumSubFrames = 13
DateTime = 29-Aug-14  21:24:16

[ZValue = 37]
TiltAngle = 43.9926
StagePosition = 870.206 76.8467
StageZ = -13.9763
Magnification = 42000
Intensity = 0.02676
ExposureDose = 1.25822
PixelSpacing = 3.42
SpotSize = 7
Defocus = 13.333
ImageShift = -0.0683455 0.153519
RotationAngle = -96.9174
ExposureTime = 0.96
Binning = 1
CameraIndex = 0
DividedBy2 = 1
MinMaxMean = 0 25613 47.5894
TargetDefocus = 0.5
SubFramePath = \\Gatan\Zdravko\29.08.14_syn_ctrl01_13.08_tomo_01\Aug29_21.24.52.mrc
NumSubFrames = 13
DateTime = 29-Aug-14  21:25:02

[ZValue = 38]
TiltAngle = 45.9929
StagePosition = 870.204 76.8603
StageZ = -13.9763
Magnification = 42000
Intensity = 0.02676
ExposureDose = 1.25824
PixelSpacing = 3.42
SpotSize = 7
Defocus = 12.2363
ImageShift = -0.0699777 0.168919
RotationAngle = -96.9174
ExposureTime = 0.96
Binning = 1
CameraIndex = 0
DividedBy2 = 1
MinMaxMean = 0 29116 44.6951
TargetDefocus = 0.5
SubFramePath = \\Gatan\Zdravko\29.08.14_syn_ctrl01_13.08_tomo_01\Aug29_21.25.38.mrc
NumSubFrames = 13
DateTime = 29-Aug-14  21:25:49

[ZValue = 39]
TiltAngle = 47.9931
StagePosition = 870.204 76.8698
StageZ = -13.9763
Magnification = 42000
Intensity = 0.02676
ExposureDose = 1.25827
PixelSpacing = 3.42
SpotSize = 7
Defocus = 11.0579
ImageShift = -0.067904 0.179806
RotationAngle = -96.9174
ExposureTime = 0.96
Binning = 1
CameraIndex = 0
DividedBy2 = 1
MinMaxMean = 0 29992 41.5371
TargetDefocus = 0.5
SubFramePath = \\Gatan\Zdravko\29.08.14_syn_ctrl01_13.08_tomo_01\Aug29_21.26.25.mrc
NumSubFrames = 13
DateTime = 29-Aug-14  21:26:35

[ZValue = 40]
TiltAngle = 49.9939
StagePosition = 870.205 76.8802
StageZ = -13.9763
Magnification = 42000
Intensity = 0.02676
ExposureDose = 1.25829
PixelSpacing = 3.42
SpotSize = 7
Defocus = 10.9212
ImageShift = -0.0698035 0.200424
RotationAngle = -96.9174
ExposureTime = 0.96
Binning = 1
CameraIndex = 0
DividedBy2 = 1
MinMaxMean = -30619 13817 38.6845
TargetDefocus = 0.5
SubFramePath = \\Gatan\Zdravko\29.08.14_syn_ctrl01_13.08_tomo_01\Aug29_21.27.11.mrc
NumSubFrames = 13
DateTime = 29-Aug-14  21:27:21

[ZValue = 41]
TiltAngle = 51.9941
StagePosition = 870.203 76.8823
StageZ = -13.9763
Magnification = 42000
Intensity = 0.02676
ExposureDose = 1.36318
PixelSpacing = 3.42
SpotSize = 7
Defocus = 10.7628
ImageShift = -0.0695876 0.213987
RotationAngle = -96.9174
ExposureTime = 1.04
Binning = 1
CameraIndex = 0
DividedBy2 = 1
MinMaxMean = -31166 12086 35.6722
TargetDefocus = 0.5
SubFramePath = \\Gatan\Zdravko\29.08.14_syn_ctrl01_13.08_tomo_01\Aug29_21.27.58.mrc
NumSubFrames = 13
DateTime = 29-Aug-14  21:28:08

[ZValue = 42]
TiltAngle = 53.9919
StagePosition = 870.201 76.8876
StageZ = -13.9763
Magnification = 42000
Intensity = 0.02676
ExposureDose = 1.36321
PixelSpacing = 3.42
SpotSize = 7
Defocus = 10.5846
ImageShift = -0.0646899 0.21694
RotationAngle = -96.9174
ExposureTime = 1.04
Binning = 1
CameraIndex = 0
DividedBy2 = 1
MinMaxMean = -25474 13783 32.5878
TargetDefocus = 0.5
SubFramePath = \\Gatan\Zdravko\29.08.14_syn_ctrl01_13.08_tomo_01\Aug29_21.28.44.mrc
NumSubFrames = 13
DateTime = 29-Aug-14  21:28:55

[ZValue = 43]
TiltAngle = 55.9926
StagePosition = 870.201 76.8928
StageZ = -13.9763
Magnification = 42000
Intensity = 0.02676
ExposureDose = 1.36324
PixelSpacing = 3.42
SpotSize = 7
Defocus = 10.4414
ImageShift = -0.0546481 0.210103
RotationAngle = -96.9174
ExposureTime = 1.04
Binning = 1
CameraIndex = 0
DividedBy2 = 1
MinMaxMean = -24489 13750 29.3312
TargetDefocus = 0.5
SubFramePath = \\Gatan\Zdravko\29.08.14_syn_ctrl01_13.08_tomo_01\Aug29_21.29.21.mrc
NumSubFrames = 13
DateTime = 29-Aug-14  21:29:31

[ZValue = 44]
TiltAngle = 57.9949
StagePosition = 870.199 76.8918
StageZ = -13.9763
Magnification = 42000
Intensity = 0.02676
ExposureDose = 1.46815
PixelSpacing = 3.42
SpotSize = 7
Defocus = 10.3083
ImageShift = -0.0507973 0.217925
RotationAngle = -96.9174
ExposureTime = 1.12
Binning = 1
CameraIndex = 0
DividedBy2 = 1
MinMaxMean = -20439 14849 27.8042
TargetDefocus = 0.5
SubFramePath = \\Gatan\Zdravko\29.08.14_syn_ctrl01_13.08_tomo_01\Aug29_21.29.59.mrc
NumSubFrames = 14
DateTime = 29-Aug-14  21:30:10

[ZValue = 45]
TiltAngle = 59.9931
StagePosition = 870.2 76.8897
StageZ = -13.9763
Magnification = 42000
Intensity = 0.02676
ExposureDose = 1.46818
PixelSpacing = 3.42
SpotSize = 7
Defocus = 10.1428
ImageShift = -0.0527261 0.237049
RotationAngle = -96.9174
ExposureTime = 1.12
Binning = 1
CameraIndex = 0
DividedBy2 = 1
MinMaxMean = 0 31853 23.3326
TargetDefocus = 0.5
SubFramePath = \\Gatan\Zdravko\29.08.14_syn_ctrl01_13.08_tomo_01\Aug29_21.30.25.mrc
NumSubFrames = 14
DateTime = 29-Aug-14  21:30:36
